# Initial state: Random
# Temperature: 1
# Lattice size L = 20
# MCcycles  -  <E>/particle  -  <|M|>/particle  -  E_total  -  N_accepted
              1          -0.89          0.085           -356            192
              2          -0.98         0.0975           -428          147.5
              3          -1.08     0.10833333           -512            133
              4         -1.145        0.11875           -536         116.75
              5         -1.196          0.133           -560          103.4
              6          -1.24     0.14166667           -584      94.666667
              7     -1.2771429     0.14928571           -600      88.857143
              8       -1.30875       0.148125           -612         82.875
              9     -1.3355556          0.145           -620      78.333333
             10         -1.361          0.141           -636           74.4
             11     -1.3836364     0.14363636           -644      71.363636
             12        -1.4025     0.14833333           -644          67.75
             13     -1.4192308     0.15384615           -648      64.692308
             14     -1.4321429     0.15785714           -640      62.928571
             15     -1.4453333           0.16           -652           62.2
             16        -1.4575         0.1625           -656        60.9375
             17     -1.4688235     0.16441176           -660      58.588235
             18     -1.4805556     0.16833333           -672      57.333333
             19     -1.4915789     0.17026316           -676      56.210526
             20         -1.501        0.17275           -672          55.25
             21          -1.51     0.17571429           -676      53.904762
             22     -1.5190909     0.18045455           -684      52.863636
             23     -1.5273913     0.18586957           -684      51.913043
             24     -1.5358333       0.189375           -692      50.458333
             25        -1.5436         0.1926           -692          49.16
             26     -1.5511538     0.19576923           -696      47.923077
             27     -1.5577778     0.19907407           -692      47.185185
             28     -1.5635714     0.20107143           -688      46.285714
             29     -1.5682759     0.20362069           -680      45.517241
             30     -1.5736667     0.20666667           -692           44.6
             31     -1.5787097     0.21016129           -692      43.806452
             32     -1.5834375     0.21328125           -692       43.09375
             33     -1.5878788     0.21681818           -692      42.272727
             34     -1.5923529     0.21941176           -696      41.470588
             35     -1.5962857     0.22171429           -692             41
             36     -1.6002778     0.22277778           -696      40.416667
             37     -1.6032432     0.22486486           -684      40.081081
             38     -1.6063158     0.22552632           -688      39.710526
             39     -1.6087179     0.22487179           -680      39.512821
             40        -1.6115        0.22425           -688         39.025
             41     -1.6146341     0.22353659           -696      38.731707
             42      -1.617381      0.2227381           -692      38.595238
             43     -1.6202326     0.22186047           -696      38.093023
             44     -1.6227273     0.22113636           -692          37.75
             45     -1.6251111     0.21911111           -692      37.622222
             46     -1.6271739      0.2176087           -688           37.5
             47     -1.6297872     0.21606383           -700      37.148936
             48     -1.6322917        0.21375           -700          36.75
             49      -1.634898     0.21112245           -704      36.530612
             50        -1.6374         0.2088           -704          36.08
             51     -1.6398039     0.20647059           -704      35.666667
             52     -1.6417308     0.20442308           -696      35.403846
             53     -1.6437736     0.20245283           -700      35.075472
             54     -1.6453704     0.20074074           -692      34.611111
             55     -1.6474545     0.20018182           -704      34.381818
             56     -1.6489286     0.19928571           -692         34.125
             57     -1.6501754     0.19842105           -688      33.877193
             58     -1.6515517     0.19810345           -692      33.775862
             59     -1.6532203     0.19720339           -700      33.525424
             60     -1.6546667     0.19633333           -696           33.3
             61     -1.6559016     0.19598361           -692      33.016393
             62     -1.6569355      0.1958871           -688      32.854839
             63     -1.6579365     0.19603175           -688      32.698413
             64     -1.6590625      0.1965625           -692      32.484375
             65     -1.6603077     0.19715385           -696      32.338462
             66     -1.6613636     0.19787879           -692      32.272727
             67     -1.6625373     0.19895522           -696      32.104478
             68     -1.6630882     0.19992647           -680             32
             69      -1.664058     0.20101449           -692      31.855072
             70     -1.6654286     0.20214286           -704      31.757143
             71     -1.6666197     0.20309859           -700      31.535211
             72     -1.6676389     0.20354167           -696      31.333333
             73     -1.6686301     0.20424658           -696      31.150685
             74     -1.6698649          0.205           -704      30.959459
             75     -1.6713333     0.20566667           -712          30.64
             76        -1.6725     0.20684211           -704      30.394737
             77     -1.6737662     0.20792208           -708      30.298701
             78         -1.675     0.20865385           -708      30.102564
             79     -1.6762025     0.20962025           -708      29.898734
             80        -1.6775        0.21025           -712        29.7375
             81     -1.6787654     0.21074074           -712      29.444444
             82      -1.679878     0.21140244           -708      29.341463
             83     -1.6809639     0.21204819           -708      29.084337
             84     -1.6816667         0.2125           -696      29.011905
             85     -1.6825882     0.21335294           -704      28.870588
             86     -1.6834884     0.21418605           -704      28.697674
             87     -1.6843678     0.21477011           -704      28.528736
             88     -1.6852273     0.21534091           -704      28.272727
             89     -1.6858427     0.21623596           -696      28.134831
             90     -1.6863333     0.21722222           -692      28.044444
             91      -1.687033     0.21791209           -700      27.989011
             92     -1.6879348      0.2186413           -708      27.934783
             93     -1.6889247     0.21946237           -712      27.741935
             94     -1.6898936     0.22010638           -712      27.542553
             95     -1.6908421     0.22073684           -712      27.315789
             96     -1.6916667     0.22098958           -708      27.208333
             97     -1.6924742     0.22149485           -708      27.082474
             98     -1.6932653     0.22173469           -708      26.959184
             99     -1.6940404     0.22191919           -708      26.838384
            100        -1.6948        0.22235           -708          26.72
            101     -1.6951485     0.22267327           -692      26.594059
            102     -1.6957843     0.22289216           -704      26.509804
            103     -1.6965049     0.22325243           -708      26.398058
            104     -1.6973077     0.22365385           -712      26.288462
            105     -1.6980952     0.22414286           -712       26.07619
            106     -1.6988679     0.22462264           -712      25.924528
            107     -1.6996262     0.22504673           -712      25.803738
            108     -1.7003704     0.22546296           -712       25.62037
            109     -1.7010092     0.22610092           -708      25.486239
            110     -1.7017273     0.22668182           -712      25.372727
            111     -1.7023423     0.22747748           -708      25.297297
            112     -1.7028571      0.2284375           -704      25.142857
            113     -1.7034513     0.22973451           -708      25.061947
            114     -1.7041228     0.23105263           -712       24.95614
            115     -1.7047826     0.23247826           -712           24.8
            116     -1.7051724     0.23396552           -700      24.758621
            117     -1.7057265     0.23529915           -708      24.709402
            118     -1.7063559     0.23665254           -712      24.576271
            119     -1.7069748     0.23806723           -712      24.470588
            120     -1.7075833     0.23954167           -712           24.3
            121     -1.7081818     0.24095041           -712      24.173554
            122     -1.7086885     0.24245902           -708      24.081967
            123     -1.7091057     0.24369919           -704      24.065041
            124     -1.7095968     0.24475806           -708      24.016129
            125       -1.71008        0.24576           -708          23.88
            126     -1.7104762     0.24662698           -704      23.873016
            127     -1.7107874     0.24732283           -700      23.811024
            128     -1.7110937     0.24773438           -700      23.742188
            129     -1.7113953     0.24837209           -700      23.713178
            130     -1.7115385     0.24919231           -692      23.646154
            131     -1.7115267     0.25026718           -684      23.641221
            132     -1.7118182     0.25155303           -700      23.689394
            133     -1.7122556     0.25300752           -708       23.62406
            134     -1.7126866     0.25447761           -708      23.529851
            135      -1.713037     0.25581481           -704      23.481481
            136     -1.7133824     0.25716912           -704      23.389706
            137     -1.7136496     0.25846715           -700      23.357664
            138     -1.7138406     0.25981884           -696      23.362319
            139     -1.7139568     0.26140288           -692      23.359712
            140         -1.714     0.26307143           -688      23.285714
            141     -1.7141844     0.26446809           -696      23.283688
            142     -1.7144366     0.26591549           -700      23.232394
            143     -1.7148252      0.2670979           -708      23.216783
            144     -1.7151389     0.26847222           -704      23.152778
            145     -1.7155172     0.26958621           -708      23.124138
            146     -1.7158219     0.27061644           -704       23.10274
            147     -1.7159184     0.27183673           -692      23.095238
            148     -1.7160135     0.27314189           -692      23.135135
            149     -1.7163087     0.27436242           -704      23.073826
            150     -1.7165333         0.2757           -700          23.08
            151     -1.7168874     0.27695364           -708      23.033113
            152     -1.7170395     0.27822368           -696      22.980263
            153     -1.7173203     0.27954248           -704             23
            154     -1.7175974     0.28081169           -704      22.961039
            155      -1.717871     0.28216129           -704      22.922581
            156      -1.718141     0.28358974           -704      22.910256
            157     -1.7184713     0.28525478           -708      22.866242
            158     -1.7187975     0.28705696           -708      22.816456
            159     -1.7189937     0.28883648           -700       22.72327
            160      -1.719125         0.2905           -696           22.7
            161     -1.7191925     0.29198758           -692      22.689441
            162     -1.7191975     0.29358025           -688      22.660494
            163     -1.7193252     0.29509202           -696      22.644172
            164     -1.7194512     0.29661585           -696      22.573171
            165     -1.7195758     0.29812121           -696      22.557576
            166     -1.7198193     0.29960843           -704      22.542169
            167     -1.7200599     0.30098802           -704       22.48503
            168     -1.7202976      0.3022619           -704      22.440476
            169     -1.7204142     0.30372781           -696      22.431953
            170     -1.7205294     0.30532353           -696      22.423529
            171     -1.7206433     0.30678363           -696      22.385965
            172      -1.720814     0.30828488           -700      22.360465
            173     -1.7209827     0.30979769           -700      22.317919
            174      -1.721092     0.31114943           -696      22.321839
            175     -1.7213143     0.31257143           -704      22.268571
            176     -1.7216477     0.31411932           -712      22.227273
            177     -1.7219209     0.31559322           -708      22.135593
            178     -1.7222472     0.31702247           -712      22.039326
            179      -1.722514     0.31843575           -708      21.949721
            180     -1.7227222     0.31972222           -704      21.883333
            181     -1.7228729     0.32110497           -700      21.895028
            182      -1.722967         0.3225           -696      21.879121
            183      -1.723224     0.32396175           -708      21.863388
            184     -1.7235326     0.32557065           -712      21.777174
            185     -1.7238378     0.32708108           -712      21.697297
            186     -1.7241398     0.32857527           -712      21.634409
            187     -1.7244385     0.33008021           -712       21.59893
            188     -1.7246809     0.33148936           -708      21.574468
            189     -1.7248677      0.3328836           -704      21.513228
            190         -1.725     0.33436842           -700      21.463158
            191     -1.7252356     0.33594241           -708      21.445026
            192     -1.7253646     0.33755208           -700      21.427083
            193     -1.7254922     0.33919689           -700      21.378238
            194     -1.7256186      0.3406701           -700      21.360825
            195     -1.7257436     0.34210256           -700      21.338462
            196     -1.7259184     0.34346939           -704      21.290816
            197     -1.7261929          0.345           -712      21.258883
            198     -1.7264141      0.3464899           -708      21.186869
            199     -1.7265829     0.34786432           -704      21.140704
            200       -1.72675       0.349175           -704         21.125
            201     -1.7268657     0.35049751           -700      21.124378
            202     -1.7270297     0.35183168           -704      21.123762
            203     -1.7271921     0.35320197           -704      21.078818
            204     -1.7273039     0.35443627           -700      21.039216
            205     -1.7274634     0.35570732           -704      21.043902
            206     -1.7275243     0.35682039           -696      21.009709
            207     -1.7275362     0.35782609           -692      20.975845
            208     -1.7276442     0.35872596           -700      20.971154
            209     -1.7277033     0.35961722           -696      20.947368
            210     -1.7277619     0.36047619           -696      20.938095
            211     -1.7278199      0.3614218           -696      20.924171
            212     -1.7278774     0.36233491           -696       20.90566
            213     -1.7278404     0.36335681           -688      20.934272
            214     -1.7278972     0.36441589           -696      20.920561
            215     -1.7279535     0.36555814           -696      20.916279
            216     -1.7279167     0.36662037           -688      20.888889
            217     -1.7280184     0.36776498           -700      20.949309
            218     -1.7281193     0.36892202           -700      20.912844
            219     -1.7282648     0.37020548           -704      20.881279
            220     -1.7284091     0.37152273           -704      20.840909
            221      -1.728552      0.3729638           -704      20.882353
            222     -1.7285586     0.37423423           -692      20.918919
            223     -1.7286547      0.3756278           -700      20.914798
            224     -1.7288839     0.37714286           -712      20.910714
            225     -1.7291556     0.37871111           -716      20.875556
            226      -1.729469     0.38030973           -720      20.862832
            227     -1.7297357     0.38202643           -716      20.859031
            228     -1.7299561     0.38361842           -712      20.868421
            229     -1.7301747     0.38532751           -712       20.89083
            230     -1.7303913     0.38708696           -712      20.882609
            231     -1.7306926     0.38900433           -720       20.87013
            232     -1.7310776      0.3912069           -728      20.883621
            233     -1.7317597     0.39356223           -756       20.83691
            234     -1.7326068     0.39594017           -772      20.773504
            235     -1.7334468     0.39834043           -772      20.719149
            236     -1.7343644     0.40080508           -780      20.665254
            237     -1.7353586     0.40329114           -788      20.586498
            238     -1.7363866     0.40577731           -792      20.504202
            239     -1.7374895      0.4082636           -800      20.422594
            240     -1.7385833     0.41072917           -800        20.3375
            241      -1.739668     0.41317427           -800      20.253112
            242     -1.7407438     0.41559917           -800      20.169421
            243     -1.7418107     0.41800412           -800       20.08642
            244     -1.7428689     0.42038934           -800      20.004098
            245     -1.7439184      0.4227551           -800      19.922449
            246     -1.7449593     0.42510163           -800      19.841463
            247     -1.7459919     0.42742915           -800      19.761134
            248     -1.7470161      0.4297379           -800      19.681452
            249     -1.7480321     0.43202811           -800       19.60241
            250       -1.74904         0.4343           -800         19.524
            251     -1.7500398     0.43655378           -800      19.446215
            252     -1.7510317     0.43878968           -800      19.369048
            253     -1.7520158     0.44100791           -800       19.29249
            254     -1.7529921     0.44320866           -800      19.216535
            255     -1.7539608     0.44539216           -800      19.141176
            256     -1.7549219     0.44755859           -800      19.066406
            257     -1.7558755     0.44970817           -800      18.992218
            258     -1.7568217     0.45184109           -800      18.926357
            259     -1.7577606     0.45395753           -800      18.853282
            260     -1.7586923     0.45605769           -800      18.788462
            261     -1.7596169     0.45814176           -800      18.716475
